# OSU MPI Bandwidth Test v5.8
# Size      Bandwidth (MB/s)
1                       4.01
2                       7.14
4                      15.67
8                      32.33
16                     64.37
32                    128.60
64                    245.22
128                   496.27
256                   941.15
512                  1765.93
1024                 3359.67
2048                 6009.61
4096                 9261.03
8192                13676.26
16384               18063.11
32768               21122.90
65536               22735.39
131072              23714.32
262144              24204.49
524288              24421.14
1048576             24586.72
2097152             24489.22
4194304             24555.14
START OF JOBSPEC
{"resources": [{"type": "node", "count": 2, "with": [{"type": "slot", "count": 1, "with": [{"type": "core", "count": 1}], "label": "task"}]}], "tasks": [{"command": ["/opt/osu-benchmark/build.openmpi/mpi/pt2pt/osu_bw"], "slot": "task", "count": {"per_slot": 1}}], "attributes": {"system": {"duration": 0, "cwd": "/opt/azhpc-images/ubuntu/ubuntu-22.x/ubuntu-22.04-hpc", "shell": {"options": {"rlimit": {"cpu": -1, "fsize": -1, "data": -1, "stack": 8388608, "core": -1, "nofile": 1048576, "as": -1, "rss": -1, "nproc": -1}, "cpu-affinity": "per-task"}}, "constraints": {"hostlist": ["flux-sample-27,flux-sample-29"]}}, "user": {"study_id": "osu-2-iter-10"}}, "version": 1}
START OF EVENTLOG
{"timestamp":1724527474.8803835,"name":"init"}
{"timestamp":1724527474.8811123,"name":"starting"}
{"timestamp":1724527474.8716927,"name":"shell.init","context":{"service":"0-shell-fmuqF8s1","leader-rank":27,"size":2}}
{"timestamp":1724527474.8748066,"name":"shell.start","context":{"taskmap":{"version":1,"map":[[0,2,1,1]]}}}
{"timestamp":1724527476.1608694,"name":"shell.task-exit","context":{"localid":0,"rank":0,"state":"Exited","pid":113,"wait_status":0,"signaled":0,"exitcode":0}}
{"timestamp":1724527476.1957715,"name":"complete","context":{"status":0}}
{"timestamp":1724527476.1957946,"name":"done"}

