# OSU MPI Bandwidth Test v5.8
# Size      Bandwidth (MB/s)
1                       3.81
2                       7.72
4                      15.59
8                      30.83
16                     62.17
32                    118.82
64                    242.68
128                   488.81
256                   924.52
512                  1755.08
1024                 3340.30
2048                 5972.10
4096                 9219.49
8192                13595.14
16384               18263.40
32768               20717.83
65536               22029.11
131072              23670.97
262144              24147.04
524288              24339.84
1048576             24537.19
2097152             24558.20
4194304             24601.29
START OF JOBSPEC
{"resources": [{"type": "node", "count": 2, "with": [{"type": "slot", "count": 1, "with": [{"type": "core", "count": 1}], "label": "task"}]}], "tasks": [{"command": ["/opt/osu-benchmark/build.openmpi/mpi/pt2pt/osu_bw"], "slot": "task", "count": {"per_slot": 1}}], "attributes": {"system": {"duration": 0, "cwd": "/opt/azhpc-images/ubuntu/ubuntu-22.x/ubuntu-22.04-hpc", "shell": {"options": {"rlimit": {"cpu": -1, "fsize": -1, "data": -1, "stack": 8388608, "core": -1, "nofile": 1048576, "as": -1, "rss": -1, "nproc": -1}, "cpu-affinity": "per-task"}}, "constraints": {"hostlist": ["flux-sample-12,flux-sample-3"]}}, "user": {"study_id": "osu-2-iter-1"}}, "version": 1}
START OF EVENTLOG
{"timestamp":1724527440.5694423,"name":"init"}
{"timestamp":1724527440.570065,"name":"starting"}
{"timestamp":1724527440.5800023,"name":"shell.init","context":{"service":"0-shell-fWnrbyLK","leader-rank":3,"size":2}}
{"timestamp":1724527440.5827386,"name":"shell.start","context":{"taskmap":{"version":1,"map":[[0,2,1,1]]}}}
{"timestamp":1724527441.7507019,"name":"shell.task-exit","context":{"localid":0,"rank":1,"state":"Exited","pid":83,"wait_status":0,"signaled":0,"exitcode":0}}
{"timestamp":1724527441.7673814,"name":"complete","context":{"status":0}}
{"timestamp":1724527441.7674062,"name":"done"}

