# OSU MPI Bandwidth Test v5.8
# Size      Bandwidth (MB/s)
1                       3.88
2                       7.73
4                      15.47
8                      30.90
16                     62.31
32                    123.05
64                    245.90
128                   483.75
256                   922.21
512                  1726.11
1024                 3303.88
2048                 5996.54
4096                 9177.37
8192                13562.72
16384               18210.69
32768               20782.47
65536               22582.41
131072              23488.14
262144              24204.65
524288              24438.58
1048576             24549.50
2097152             24591.33
4194304             24571.79
START OF JOBSPEC
{"resources": [{"type": "node", "count": 2, "with": [{"type": "slot", "count": 1, "with": [{"type": "core", "count": 1}], "label": "task"}]}], "tasks": [{"command": ["/opt/osu-benchmark/build.openmpi/mpi/pt2pt/osu_bw"], "slot": "task", "count": {"per_slot": 1}}], "attributes": {"system": {"duration": 0, "cwd": "/opt/azhpc-images/ubuntu/ubuntu-22.x/ubuntu-22.04-hpc", "shell": {"options": {"rlimit": {"cpu": -1, "fsize": -1, "data": -1, "stack": 8388608, "core": -1, "nofile": 1048576, "as": -1, "rss": -1, "nproc": -1}, "cpu-affinity": "per-task"}}, "constraints": {"hostlist": ["flux-sample-27,flux-sample-0"]}}, "user": {"study_id": "osu-2-iter-11"}}, "version": 1}
START OF EVENTLOG
{"timestamp":1724527478.6380439,"name":"init"}
{"timestamp":1724527478.63872,"name":"starting"}
{"timestamp":1724527478.6567595,"name":"shell.init","context":{"service":"0-shell-foZtebts","leader-rank":0,"size":2}}
{"timestamp":1724527478.6594539,"name":"shell.start","context":{"taskmap":{"version":1,"map":[[0,2,1,1]]}}}
{"timestamp":1724527479.8636165,"name":"shell.task-exit","context":{"localid":0,"rank":1,"state":"Exited","pid":123,"wait_status":0,"signaled":0,"exitcode":0}}
{"timestamp":1724527479.8806336,"name":"complete","context":{"status":0}}
{"timestamp":1724527479.8806574,"name":"done"}

