# OSU MPI Bandwidth Test v5.8
# Size      Bandwidth (MB/s)
1                       4.00
2                       7.98
4                      16.01
8                      32.51
16                     65.51
32                    125.89
64                    249.01
128                   491.95
256                   951.03
512                  1781.01
1024                 3399.33
2048                 6062.11
4096                 9054.17
8192                13197.13
16384               17016.27
32768               20605.53
65536               22047.81
131072              23737.66
262144              24167.76
524288              24352.36
1048576             24191.28
2097152             24303.81
4194304             24388.99
START OF JOBSPEC
{"resources": [{"type": "node", "count": 2, "with": [{"type": "slot", "count": 1, "with": [{"type": "core", "count": 1}], "label": "task"}]}], "tasks": [{"command": ["/opt/osu-benchmark/build.openmpi/mpi/pt2pt/osu_bw"], "slot": "task", "count": {"per_slot": 1}}], "attributes": {"system": {"duration": 0, "cwd": "/opt/azhpc-images/ubuntu/ubuntu-22.x/ubuntu-22.04-hpc", "shell": {"options": {"rlimit": {"cpu": -1, "fsize": -1, "data": -1, "stack": 8388608, "core": -1, "nofile": 1048576, "as": -1, "rss": -1, "nproc": -1}, "cpu-affinity": "per-task"}}, "constraints": {"hostlist": ["flux-sample-9,flux-sample-23"]}}, "user": {"study_id": "osu-2-iter-21"}}, "version": 1}
START OF EVENTLOG
{"timestamp":1724527515.4642296,"name":"init"}
{"timestamp":1724527515.4651618,"name":"starting"}
{"timestamp":1724527515.4540784,"name":"shell.init","context":{"service":"0-shell-f25oCrbjV","leader-rank":9,"size":2}}
{"timestamp":1724527515.4569874,"name":"shell.start","context":{"taskmap":{"version":1,"map":[[0,2,1,1]]}}}
{"timestamp":1724527516.6621213,"name":"shell.task-exit","context":{"localid":0,"rank":0,"state":"Exited","pid":133,"wait_status":0,"signaled":0,"exitcode":0}}
{"timestamp":1724527516.7041397,"name":"complete","context":{"status":0}}
{"timestamp":1724527516.704165,"name":"done"}

