# OSU MPI Bandwidth Test v5.8
# Size      Bandwidth (MB/s)
1                       0.77
2                       1.56
4                       3.14
8                       6.17
16                     12.30
32                     24.59
64                     49.14
128                    99.05
256                   195.73
512                   392.69
1024                  783.88
2048                 1502.07
4096                 2882.33
8192                 5244.21
16384                6927.95
32768                8545.63
65536                9468.44
131072               9854.65
262144              10458.33
524288              10598.96
1048576             10575.24
2097152             10512.46
4194304             10575.69
START OF JOBSPEC
{"resources": [{"type": "node", "count": 2, "with": [{"type": "slot", "count": 1, "with": [{"type": "core", "count": 1}], "label": "task"}]}], "tasks": [{"command": ["/opt/osu-benchmark/build.openmpi/mpi/pt2pt/osu_bw"], "slot": "task", "count": {"per_slot": 1}}], "attributes": {"system": {"duration": 0, "cwd": "/opt", "shell": {"options": {"rlimit": {"cpu": -1, "fsize": -1, "data": -1, "stack": 10485760, "core": -1, "nofile": 1048576, "as": -1, "rss": -1, "nproc": -1}, "cpu-affinity": "per-task"}}, "constraints": {"hostlist": ["flux-sample-21,flux-sample-27"]}}, "user": {"study_id": "osu-2-iter-0"}}, "version": 1}
START OF EVENTLOG
{"timestamp":1724210218.137347,"name":"init"}
{"timestamp":1724210218.138036,"name":"starting"}
{"timestamp":1724210218.1571813,"name":"shell.init","context":{"service":"0-shell-f3mPfWVQs","leader-rank":21,"size":2}}
{"timestamp":1724210218.1604705,"name":"shell.start","context":{"taskmap":{"version":1,"map":[[0,2,1,1]]}}}
{"timestamp":1724210220.7734587,"name":"shell.task-exit","context":{"localid":0,"rank":0,"state":"Exited","pid":75,"wait_status":0,"signaled":0,"exitcode":0}}
{"timestamp":1724210220.7800515,"name":"complete","context":{"status":0}}
{"timestamp":1724210220.7801104,"name":"done"}

