# OSU MPI Bandwidth Test v5.8
# Size      Bandwidth (MB/s)
1                       0.82
2                       1.65
4                       3.34
8                       6.62
16                     13.23
32                     26.44
64                     52.82
128                   103.72
256                   207.52
512                   416.03
1024                  827.69
2048                 1618.58
4096                 3078.92
8192                 5565.97
16384                7369.91
32768                8698.41
65536                9612.99
131072               9970.93
262144              10528.11
524288              10806.56
1048576             10833.91
2097152             10817.91
4194304             10833.11
START OF JOBSPEC
{"resources": [{"type": "node", "count": 2, "with": [{"type": "slot", "count": 1, "with": [{"type": "core", "count": 1}], "label": "task"}]}], "tasks": [{"command": ["/opt/osu-benchmark/build.openmpi/mpi/pt2pt/osu_bw"], "slot": "task", "count": {"per_slot": 1}}], "attributes": {"system": {"duration": 0, "cwd": "/opt", "shell": {"options": {"rlimit": {"cpu": -1, "fsize": -1, "data": -1, "stack": 10485760, "core": -1, "nofile": 1048576, "as": -1, "rss": -1, "nproc": -1}, "cpu-affinity": "per-task"}}, "constraints": {"hostlist": ["flux-sample-29,flux-sample-21"]}}, "user": {"study_id": "osu-2-iter-10"}}, "version": 1}
START OF EVENTLOG
{"timestamp":1724210802.6281309,"name":"init"}
{"timestamp":1724210802.6287038,"name":"starting"}
{"timestamp":1724210802.6442761,"name":"shell.init","context":{"service":"0-shell-f2k7HU9p3","leader-rank":21,"size":2}}
{"timestamp":1724210802.6464615,"name":"shell.start","context":{"taskmap":{"version":1,"map":[[0,2,1,1]]}}}
{"timestamp":1724210805.2271068,"name":"shell.task-exit","context":{"localid":0,"rank":0,"state":"Exited","pid":79,"wait_status":0,"signaled":0,"exitcode":0}}
{"timestamp":1724210805.2317092,"name":"complete","context":{"status":0}}
{"timestamp":1724210805.2317576,"name":"done"}

