# OSU MPI Bandwidth Test v5.8
# Size      Bandwidth (MB/s)
1                       0.80
2                       1.63
4                       3.23
8                       6.39
16                     12.84
32                     25.75
64                     51.36
128                   103.51
256                   205.89
512                   407.86
1024                  792.69
2048                 1542.70
4096                 2965.76
8192                 5409.57
16384                6993.00
32768                8402.05
65536                9290.45
131072               9873.53
262144              10400.57
524288              10671.35
1048576             10702.53
2097152             10668.40
4194304             10684.77
START OF JOBSPEC
{"resources": [{"type": "node", "count": 2, "with": [{"type": "slot", "count": 1, "with": [{"type": "core", "count": 1}], "label": "task"}]}], "tasks": [{"command": ["/opt/osu-benchmark/build.openmpi/mpi/pt2pt/osu_bw"], "slot": "task", "count": {"per_slot": 1}}], "attributes": {"system": {"duration": 0, "cwd": "/opt", "shell": {"options": {"rlimit": {"cpu": -1, "fsize": -1, "data": -1, "stack": 10485760, "core": -1, "nofile": 1048576, "as": -1, "rss": -1, "nproc": -1}, "cpu-affinity": "per-task"}}, "constraints": {"hostlist": ["flux-sample-21,flux-sample-26"]}}, "user": {"study_id": "osu-2-iter-4"}}, "version": 1}
START OF EVENTLOG
{"timestamp":1724210272.1471403,"name":"init"}
{"timestamp":1724210272.1478643,"name":"starting"}
{"timestamp":1724210272.1645653,"name":"shell.init","context":{"service":"0-shell-f4BCFFh7M","leader-rank":21,"size":2}}
{"timestamp":1724210272.1675899,"name":"shell.start","context":{"taskmap":{"version":1,"map":[[0,2,1,1]]}}}
{"timestamp":1724210274.7678733,"name":"shell.task-exit","context":{"localid":0,"rank":1,"state":"Exited","pid":75,"wait_status":0,"signaled":0,"exitcode":0}}
{"timestamp":1724210274.7724998,"name":"complete","context":{"status":0}}
{"timestamp":1724210274.7725518,"name":"done"}

