# OSU MPI Bandwidth Test v5.8
# Size      Bandwidth (MB/s)
1                       0.78
2                       1.57
4                       3.16
8                       6.28
16                     12.48
32                     24.80
64                     50.05
128                   100.10
256                   200.93
512                   396.90
1024                  787.40
2048                 1540.86
4096                 2913.29
8192                 5306.36
16384                6950.92
32768                8478.22
65536                9449.86
131072               9740.11
262144              10258.98
524288              10503.69
1048576             10475.09
2097152             10434.30
4194304             10512.45
START OF JOBSPEC
{"resources": [{"type": "node", "count": 2, "with": [{"type": "slot", "count": 1, "with": [{"type": "core", "count": 1}], "label": "task"}]}], "tasks": [{"command": ["/opt/osu-benchmark/build.openmpi/mpi/pt2pt/osu_bw"], "slot": "task", "count": {"per_slot": 1}}], "attributes": {"system": {"duration": 0, "cwd": "/opt", "shell": {"options": {"rlimit": {"cpu": -1, "fsize": -1, "data": -1, "stack": 10485760, "core": -1, "nofile": 1048576, "as": -1, "rss": -1, "nproc": -1}, "cpu-affinity": "per-task"}}, "constraints": {"hostlist": ["flux-sample-21,flux-sample-13"]}}, "user": {"study_id": "osu-2-iter-10"}}, "version": 1}
START OF EVENTLOG
{"timestamp":1724210353.4139185,"name":"init"}
{"timestamp":1724210353.414686,"name":"starting"}
{"timestamp":1724210353.4306471,"name":"shell.init","context":{"service":"0-shell-f4o1VmQU7","leader-rank":13,"size":2}}
{"timestamp":1724210353.4331484,"name":"shell.start","context":{"taskmap":{"version":1,"map":[[0,2,1,1]]}}}
{"timestamp":1724210356.0583353,"name":"shell.task-exit","context":{"localid":0,"rank":0,"state":"Exited","pid":75,"wait_status":0,"signaled":0,"exitcode":0}}
{"timestamp":1724210356.0630577,"name":"complete","context":{"status":0}}
{"timestamp":1724210356.063086,"name":"done"}

