# OSU MPI Bandwidth Test v5.8
# Size      Bandwidth (MB/s)
1                       3.93
2                       7.75
4                      14.89
8                      30.45
16                     61.31
32                    122.70
64                    191.40
128                   346.25
256                   637.03
512                   987.00
1024                 1811.41
2048                 2962.91
4096                 4485.94
8192                 6181.53
16384                7627.01
32768                8135.95
65536                8413.14
131072               8410.52
262144               8536.18
524288               8054.78
1048576              6323.47
2097152              3199.89
4194304              1162.03
START OF JOBSPEC
{"resources": [{"type": "node", "count": 2, "with": [{"type": "slot", "count": 1, "with": [{"type": "core", "count": 1}], "label": "task"}]}], "tasks": [{"command": ["/opt/osu-benchmark/build.openmpi/mpi/pt2pt/osu_bw"], "slot": "task", "count": {"per_slot": 1}}], "attributes": {"system": {"duration": 0, "cwd": "/opt", "shell": {"options": {"rlimit": {"cpu": -1, "fsize": -1, "data": -1, "stack": 8388608, "core": -1, "nofile": 1048576, "as": -1, "rss": -1, "nproc": -1}, "cpu-affinity": "per-task"}}, "constraints": {"hostlist": ["flux-sample-17,flux-sample-5"]}}, "user": {"study_id": "osu-2-iter-8"}}, "version": 1}
START OF EVENTLOG
{"timestamp":1725115353.3721297,"name":"init"}
{"timestamp":1725115353.3730633,"name":"starting"}
{"timestamp":1725115353.3923469,"name":"shell.init","context":{"service":"0-shell-fQH1d1f5","leader-rank":17,"size":2}}
{"timestamp":1725115353.3959715,"name":"shell.start","context":{"taskmap":{"version":1,"map":[[0,2,1,1]]}}}
{"timestamp":1725115360.3310347,"name":"shell.task-exit","context":{"localid":0,"rank":0,"state":"Exited","pid":99,"wait_status":0,"signaled":0,"exitcode":0}}
{"timestamp":1725115360.3353279,"name":"complete","context":{"status":0}}
{"timestamp":1725115360.3353631,"name":"done"}

