# OSU MPI Bandwidth Test v5.8
# Size      Bandwidth (MB/s)
1                       0.78
2                       1.57
4                       3.17
8                       6.26
16                     12.51
32                     24.63
64                     49.47
128                    99.12
256                   199.87
512                   395.02
1024                  785.81
2048                 1530.72
4096                 2941.06
8192                 5295.56
16384                6838.02
32768                8539.34
65536                9392.82
131072               9766.56
262144              10263.15
524288              10655.26
1048576             10629.50
2097152             10596.08
4194304             10644.87
START OF JOBSPEC
{"resources": [{"type": "node", "count": 2, "with": [{"type": "slot", "count": 1, "with": [{"type": "core", "count": 1}], "label": "task"}]}], "tasks": [{"command": ["/opt/osu-benchmark/build.openmpi/mpi/pt2pt/osu_bw"], "slot": "task", "count": {"per_slot": 1}}], "attributes": {"system": {"duration": 0, "cwd": "/opt", "shell": {"options": {"rlimit": {"cpu": -1, "fsize": -1, "data": -1, "stack": 10485760, "core": -1, "nofile": 1048576, "as": -1, "rss": -1, "nproc": -1}, "cpu-affinity": "per-task"}}, "constraints": {"hostlist": ["flux-sample-24,flux-sample-11"]}}, "user": {"study_id": "osu-2-iter-18"}}, "version": 1}
START OF EVENTLOG
{"timestamp":1724292786.1034026,"name":"init"}
{"timestamp":1724292786.104115,"name":"starting"}
{"timestamp":1724292786.1202385,"name":"shell.init","context":{"service":"0-shell-f4LLLGuEP","leader-rank":11,"size":2}}
{"timestamp":1724292786.1227438,"name":"shell.start","context":{"taskmap":{"version":1,"map":[[0,2,1,1]]}}}
{"timestamp":1724292788.688534,"name":"shell.task-exit","context":{"localid":0,"rank":0,"state":"Exited","pid":91,"wait_status":0,"signaled":0,"exitcode":0}}
{"timestamp":1724292788.693357,"name":"complete","context":{"status":0}}
{"timestamp":1724292788.6934118,"name":"done"}

