# OSU MPI Bandwidth Test v5.8
# Size      Bandwidth (MB/s)
1                       0.76
2                       1.54
4                       3.10
8                       6.16
16                     12.29
32                     24.68
64                     49.19
128                    96.49
256                   193.71
512                   386.12
1024                  766.87
2048                 1505.88
4096                 2893.17
8192                 5256.91
16384                6780.68
32768                8243.73
65536                9266.27
131072               9680.39
262144              10162.74
524288              10352.42
1048576             10479.57
2097152             10457.47
4194304             10482.63
START OF JOBSPEC
{"resources": [{"type": "node", "count": 2, "with": [{"type": "slot", "count": 1, "with": [{"type": "core", "count": 1}], "label": "task"}]}], "tasks": [{"command": ["/opt/osu-benchmark/build.openmpi/mpi/pt2pt/osu_bw"], "slot": "task", "count": {"per_slot": 1}}], "attributes": {"system": {"duration": 0, "cwd": "/opt", "shell": {"options": {"rlimit": {"cpu": -1, "fsize": -1, "data": -1, "stack": 10485760, "core": -1, "nofile": 1048576, "as": -1, "rss": -1, "nproc": -1}, "cpu-affinity": "per-task"}}, "constraints": {"hostlist": ["flux-sample-9,flux-sample-26"]}}, "user": {"study_id": "osu-2-iter-26"}}, "version": 1}
START OF EVENTLOG
{"timestamp":1724292893.9505706,"name":"init"}
{"timestamp":1724292893.9515145,"name":"starting"}
{"timestamp":1724292893.9695096,"name":"shell.init","context":{"service":"0-shell-f59rzqV2f","leader-rank":9,"size":2}}
{"timestamp":1724292893.9717703,"name":"shell.start","context":{"taskmap":{"version":1,"map":[[0,2,1,1]]}}}
{"timestamp":1724292896.5625501,"name":"shell.task-exit","context":{"localid":0,"rank":0,"state":"Exited","pid":109,"wait_status":0,"signaled":0,"exitcode":0}}
{"timestamp":1724292896.5695648,"name":"complete","context":{"status":0}}
{"timestamp":1724292896.5696261,"name":"done"}

