# OSU MPI Bandwidth Test v5.8
# Size      Bandwidth (MB/s)
1                       0.79
2                       1.56
4                       3.19
8                       6.30
16                     12.63
32                     25.24
64                     50.58
128                   101.34
256                   198.27
512                   393.24
1024                  783.21
2048                 1542.29
4096                 2955.95
8192                 5355.00
16384                6901.31
32768                8343.09
65536                9219.02
131072               9704.46
262144              10271.24
524288              10486.17
1048576             10485.64
2097152             10454.08
4194304             10474.12
START OF JOBSPEC
{"resources": [{"type": "node", "count": 2, "with": [{"type": "slot", "count": 1, "with": [{"type": "core", "count": 1}], "label": "task"}]}], "tasks": [{"command": ["/opt/osu-benchmark/build.openmpi/mpi/pt2pt/osu_bw"], "slot": "task", "count": {"per_slot": 1}}], "attributes": {"system": {"duration": 0, "cwd": "/opt", "shell": {"options": {"rlimit": {"cpu": -1, "fsize": -1, "data": -1, "stack": 10485760, "core": -1, "nofile": 1048576, "as": -1, "rss": -1, "nproc": -1}, "cpu-affinity": "per-task"}}, "constraints": {"hostlist": ["flux-sample-3,flux-sample-26"]}}, "user": {"study_id": "osu-2-iter-6"}}, "version": 1}
START OF EVENTLOG
{"timestamp":1724292624.8007588,"name":"init"}
{"timestamp":1724292624.8013899,"name":"starting"}
{"timestamp":1724292624.8207715,"name":"shell.init","context":{"service":"0-shell-f37FFJFrf","leader-rank":3,"size":2}}
{"timestamp":1724292624.8229458,"name":"shell.start","context":{"taskmap":{"version":1,"map":[[0,2,1,1]]}}}
{"timestamp":1724292627.4088404,"name":"shell.task-exit","context":{"localid":0,"rank":0,"state":"Exited","pid":109,"wait_status":0,"signaled":0,"exitcode":0}}
{"timestamp":1724292627.4109745,"name":"complete","context":{"status":0}}
{"timestamp":1724292627.4110169,"name":"done"}

