# OSU MPI Bandwidth Test v5.8
# Size      Bandwidth (MB/s)
1                       0.84
2                       1.68
4                       3.31
8                       6.62
16                     13.21
32                     26.48
64                     53.24
128                   106.96
256                   212.85
512                   421.24
1024                  820.18
2048                 1604.13
4096                 3083.24
8192                 5572.39
16384                7241.19
32768                8571.16
65536                9525.50
131072               9956.02
262144              10260.36
524288              10560.24
1048576             10680.10
2097152             10655.54
4194304             10645.89
START OF JOBSPEC
{"resources": [{"type": "node", "count": 2, "with": [{"type": "slot", "count": 1, "with": [{"type": "core", "count": 1}], "label": "task"}]}], "tasks": [{"command": ["/opt/osu-benchmark/build.openmpi/mpi/pt2pt/osu_bw"], "slot": "task", "count": {"per_slot": 1}}], "attributes": {"system": {"duration": 0, "cwd": "/opt", "shell": {"options": {"rlimit": {"cpu": -1, "fsize": -1, "data": -1, "stack": 10485760, "core": -1, "nofile": 1048576, "as": -1, "rss": -1, "nproc": -1}, "cpu-affinity": "per-task"}}, "constraints": {"hostlist": ["flux-sample-29,flux-sample-16"]}}, "user": {"study_id": "osu-2-iter-16"}}, "version": 1}
START OF EVENTLOG
{"timestamp":1724292758.9981606,"name":"init"}
{"timestamp":1724292758.9989624,"name":"starting"}
{"timestamp":1724292759.0162721,"name":"shell.init","context":{"service":"0-shell-f48PUQYZV","leader-rank":16,"size":2}}
{"timestamp":1724292759.0191104,"name":"shell.start","context":{"taskmap":{"version":1,"map":[[0,2,1,1]]}}}
{"timestamp":1724292761.5718951,"name":"shell.task-exit","context":{"localid":0,"rank":0,"state":"Exited","pid":85,"wait_status":0,"signaled":0,"exitcode":0}}
{"timestamp":1724292761.5771792,"name":"complete","context":{"status":0}}
{"timestamp":1724292761.5772321,"name":"done"}

