# OSU MPI Bandwidth Test v5.8
# Size      Bandwidth (MB/s)
1                       0.78
2                       1.56
4                       3.10
8                       6.16
16                     12.26
32                     24.64
64                     49.32
128                    97.92
256                   197.66
512                   390.20
1024                  765.88
2048                 1481.21
4096                 2863.25
8192                 5214.21
16384                6781.80
32768                8337.38
65536                9282.02
131072               9687.24
262144              10119.68
524288              10340.53
1048576             10440.65
2097152             10464.49
4194304             10484.72
START OF JOBSPEC
{"resources": [{"type": "node", "count": 2, "with": [{"type": "slot", "count": 1, "with": [{"type": "core", "count": 1}], "label": "task"}]}], "tasks": [{"command": ["/opt/osu-benchmark/build.openmpi/mpi/pt2pt/osu_bw"], "slot": "task", "count": {"per_slot": 1}}], "attributes": {"system": {"duration": 0, "cwd": "/opt", "shell": {"options": {"rlimit": {"cpu": -1, "fsize": -1, "data": -1, "stack": 10485760, "core": -1, "nofile": 1048576, "as": -1, "rss": -1, "nproc": -1}, "cpu-affinity": "per-task"}}, "constraints": {"hostlist": ["flux-sample-24,flux-sample-26"]}}, "user": {"study_id": "osu-2-iter-21"}}, "version": 1}
START OF EVENTLOG
{"timestamp":1724292826.186559,"name":"init"}
{"timestamp":1724292826.187278,"name":"starting"}
{"timestamp":1724292826.2045708,"name":"shell.init","context":{"service":"0-shell-f4dzseadm","leader-rank":24,"size":2}}
{"timestamp":1724292826.2074766,"name":"shell.start","context":{"taskmap":{"version":1,"map":[[0,2,1,1]]}}}
{"timestamp":1724292828.7961259,"name":"shell.task-exit","context":{"localid":0,"rank":0,"state":"Exited","pid":109,"wait_status":0,"signaled":0,"exitcode":0}}
{"timestamp":1724292828.804225,"name":"complete","context":{"status":0}}
{"timestamp":1724292828.8042877,"name":"done"}

