# OSU MPI Bandwidth Test v5.8
# Size      Bandwidth (MB/s)
1                       0.78
2                       1.57
4                       3.15
8                       6.23
16                     12.46
32                     24.92
64                     49.56
128                    99.06
256                   197.49
512                   394.40
1024                  777.38
2048                 1523.06
4096                 2922.87
8192                 5315.13
16384                6965.53
32768                8518.96
65536                9497.15
131072               9848.87
262144              10382.80
524288              10680.32
1048576             10551.94
2097152             10500.76
4194304              5901.40
START OF JOBSPEC
{"resources": [{"type": "node", "count": 2, "with": [{"type": "slot", "count": 1, "with": [{"type": "core", "count": 1}], "label": "task"}]}], "tasks": [{"command": ["/opt/osu-benchmark/build.openmpi/mpi/pt2pt/osu_bw"], "slot": "task", "count": {"per_slot": 1}}], "attributes": {"system": {"duration": 0, "cwd": "/opt", "shell": {"options": {"rlimit": {"cpu": -1, "fsize": -1, "data": -1, "stack": 10485760, "core": -1, "nofile": 1048576, "as": -1, "rss": -1, "nproc": -1}, "cpu-affinity": "per-task"}}, "constraints": {"hostlist": ["flux-sample-3,flux-sample-16"]}}, "user": {"study_id": "osu-2-iter-5"}}, "version": 1}
START OF EVENTLOG
{"timestamp":1724292611.2841744,"name":"init"}
{"timestamp":1724292611.2847922,"name":"starting"}
{"timestamp":1724292611.3033791,"name":"shell.init","context":{"service":"0-shell-f31Hjjdfd","leader-rank":3,"size":2}}
{"timestamp":1724292611.3058779,"name":"shell.start","context":{"taskmap":{"version":1,"map":[[0,2,1,1]]}}}
{"timestamp":1724292614.2761755,"name":"shell.task-exit","context":{"localid":0,"rank":0,"state":"Exited","pid":103,"wait_status":0,"signaled":0,"exitcode":0}}
{"timestamp":1724292614.2758679,"name":"complete","context":{"status":0}}
{"timestamp":1724292614.2758977,"name":"done"}

