Warning: OMB could not identify the local rank of the process.
         This can lead to multiple processes using the same GPU.
         Please use the get_local_rank script in the OMB repo for this.
Warning: OMB could not identify the local rank of the process.
         This can lead to multiple processes using the same GPU.
         Please use the get_local_rank script in the OMB repo for this.
# OSU MPI-CUDA Bandwidth Test v5.8
# Send Buffer on HOST (H) and Receive Buffer on HOST (H)
# Size      Bandwidth (MB/s)
1                       0.17
2                       0.37
4                       0.68
8                       1.25
16                      2.61
32                      6.80
64                     17.84
128                    35.19
256                    68.17
512                   125.33
1024                  243.80
2048                  422.87
4096                  696.47
8192                 1052.05
16384                1416.28
32768                1741.71
65536                1810.92
131072               1935.68
262144               1838.10
524288               1723.74
1048576              1661.09
2097152              1666.06
4194304              1632.54
START OF JOBSPEC
{"resources": [{"type": "node", "count": 2, "with": [{"type": "slot", "count": 1, "with": [{"type": "core", "count": 1}, {"type": "gpu", "count": 1}], "label": "task"}]}], "tasks": [{"command": ["singularity", "exec", "--nv", "/opt/containers/metric-osu-gpu_google-gpu.sif", "/opt/osu-benchmark/build.openmpi/mpi/pt2pt/osu_bw", "-d", "cuda", "H", "H"], "slot": "task", "count": {"per_slot": 1}}], "attributes": {"system": {"duration": 0, "cwd": "/opt/containers", "shell": {"options": {"rlimit": {"cpu": -1, "fsize": -1, "data": -1, "stack": 8388608, "core": 0, "nofile": 1048576, "as": -1, "rss": -1, "nproc": -1}, "cpu-affinity": "per-task", "gpu-affinity": "per-task"}}, "constraints": {"hostlist": ["flux-015,flux-008"]}}, "user": {"study_id": "osu-2-iter-23"}}, "version": 1}
START OF EVENTLOG
{"timestamp":1742926111.5892451,"name":"init"}
{"timestamp":1742926111.5906811,"name":"starting"}
{"timestamp":1742926111.6149061,"name":"shell.init","context":{"service":"501043911-shell-f737uZgTZ","leader-rank":7,"size":2}}
{"timestamp":1742926111.6200736,"name":"shell.start","context":{"taskmap":{"version":1,"map":[[0,2,1,1]]}}}
{"timestamp":1742926121.1643593,"name":"shell.task-exit","context":{"localid":0,"rank":0,"state":"Exited","pid":2462,"wait_status":0,"signaled":0,"exitcode":0}}
{"timestamp":1742926121.1687407,"name":"complete","context":{"status":0}}
{"timestamp":1742926121.1687701,"name":"done"}

