# OSU MPI Bandwidth Test v5.8
# Size      Bandwidth (MB/s)
1                       0.78
2                       1.58
4                       3.19
8                       6.30
16                     12.44
32                     24.99
64                     50.16
128                   100.25
256                   200.49
512                   396.20
1024                  783.54
2048                 1530.39
4096                 2912.29
8192                 5258.31
16384                6865.52
32768                8450.00
65536                9407.67
131072               9908.25
262144              10369.48
524288              10649.30
1048576             10698.18
2097152             10665.43
4194304             10677.80
START OF JOBSPEC
{"resources": [{"type": "node", "count": 2, "with": [{"type": "slot", "count": 1, "with": [{"type": "core", "count": 1}], "label": "task"}]}], "tasks": [{"command": ["/opt/osu-benchmark/build.openmpi/mpi/pt2pt/osu_bw"], "slot": "task", "count": {"per_slot": 1}}], "attributes": {"system": {"duration": 0, "cwd": "/opt", "shell": {"options": {"rlimit": {"cpu": -1, "fsize": -1, "data": -1, "stack": 10485760, "core": -1, "nofile": 1048576, "as": -1, "rss": -1, "nproc": -1}, "cpu-affinity": "per-task"}}, "constraints": {"hostlist": ["flux-sample-57,flux-sample-3"]}}, "user": {"study_id": "osu-2-iter-14"}}, "version": 1}
START OF EVENTLOG
{"timestamp":1724356166.6433048,"name":"init"}
{"timestamp":1724356166.6441233,"name":"starting"}
{"timestamp":1724356166.6634521,"name":"shell.init","context":{"service":"0-shell-f3Af4iRmH","leader-rank":3,"size":2}}
{"timestamp":1724356166.6657269,"name":"shell.start","context":{"taskmap":{"version":1,"map":[[0,2,1,1]]}}}
{"timestamp":1724356169.2143853,"name":"shell.task-exit","context":{"localid":0,"rank":0,"state":"Exited","pid":85,"wait_status":0,"signaled":0,"exitcode":0}}
{"timestamp":1724356169.2189875,"name":"complete","context":{"status":0}}
{"timestamp":1724356169.2190185,"name":"done"}

