Warning: OMB could not identify the local rank of the process.
         This can lead to multiple processes using the same GPU.
         Please use the get_local_rank script in the OMB repo for this.
Warning: OMB could not identify the local rank of the process.
         This can lead to multiple processes using the same GPU.
         Please use the get_local_rank script in the OMB repo for this.
# OSU MPI-CUDA Bandwidth Test v5.8
# Send Buffer on HOST (H) and Receive Buffer on HOST (H)
# Size      Bandwidth (MB/s)
1                       0.21
2                       0.37
4                       0.64
8                       1.29
16                      3.32
32                      7.57
64                     17.22
128                    31.66
256                    62.13
512                   121.22
1024                  228.37
2048                  403.12
4096                  668.47
8192                 1035.94
16384                1467.86
32768                1828.52
65536                2069.19
131072               1912.48
262144               1729.17
524288               1637.30
1048576              1558.34
2097152              1535.46
4194304              1223.46
START OF JOBSPEC
{"resources": [{"type": "node", "count": 2, "with": [{"type": "slot", "count": 1, "with": [{"type": "core", "count": 1}, {"type": "gpu", "count": 1}], "label": "task"}]}], "tasks": [{"command": ["singularity", "exec", "--nv", "/opt/containers/metric-osu-gpu_google-gpu.sif", "/opt/osu-benchmark/build.openmpi/mpi/pt2pt/osu_bw", "-d", "cuda", "H", "H"], "slot": "task", "count": {"per_slot": 1}}], "attributes": {"system": {"duration": 0, "cwd": "/home/sochat1_llnl_gov", "shell": {"options": {"rlimit": {"cpu": -1, "fsize": -1, "data": -1, "stack": 8388608, "core": 0, "nofile": 1048576, "as": -1, "rss": -1, "nproc": -1}, "cpu-affinity": "per-task", "gpu-affinity": "per-task"}}, "constraints": {"hostlist": ["flux-022,flux-025"]}}, "user": {"study_id": "osu-2-iter-11"}}, "version": 1}
START OF EVENTLOG
{"timestamp":1725850056.7641821,"name":"init"}
{"timestamp":1725850056.7653918,"name":"starting"}
{"timestamp":1725850056.7862945,"name":"shell.init","context":{"service":"501043911-shell-fKhWRdXM","leader-rank":21,"size":2}}
{"timestamp":1725850056.7908239,"name":"shell.start","context":{"taskmap":{"version":1,"map":[[0,2,1,1]]}}}
{"timestamp":1725850067.7504957,"name":"shell.task-exit","context":{"localid":0,"rank":1,"state":"Exited","pid":23696,"wait_status":0,"signaled":0,"exitcode":0}}
{"timestamp":1725850067.7597921,"name":"complete","context":{"status":0}}
{"timestamp":1725850067.7598281,"name":"done"}

