Warning: OMB could not identify the local rank of the process.
         This can lead to multiple processes using the same GPU.
         Please use the get_local_rank script in the OMB repo for this.
Warning: OMB could not identify the local rank of the process.
         This can lead to multiple processes using the same GPU.
         Please use the get_local_rank script in the OMB repo for this.
# OSU MPI-CUDA Bandwidth Test v5.8
# Send Buffer on HOST (H) and Receive Buffer on HOST (H)
# Size      Bandwidth (MB/s)
1                       0.21
2                       0.58
4                       1.10
8                       2.23
16                      4.11
32                      3.33
64                     21.02
128                    40.80
256                    73.73
512                   145.90
1024                  273.09
2048                  496.09
4096                  799.06
8192                 1315.69
16384                1865.25
32768                2312.99
65536                2461.82
131072               2863.31
262144               3082.07
524288               3333.88
1048576              3415.17
2097152              3475.40
4194304              3465.10
START OF JOBSPEC
{"resources": [{"type": "node", "count": 2, "with": [{"type": "slot", "count": 1, "with": [{"type": "core", "count": 1}, {"type": "gpu", "count": 1}], "label": "task"}]}], "tasks": [{"command": ["singularity", "exec", "--nv", "/opt/containers/metric-osu-gpu_google-gpu.sif", "/opt/osu-benchmark/build.openmpi/mpi/pt2pt/osu_bw", "-d", "cuda", "H", "H"], "slot": "task", "count": {"per_slot": 1}}], "attributes": {"system": {"duration": 0, "cwd": "/home/sochat1_llnl_gov", "shell": {"options": {"rlimit": {"cpu": -1, "fsize": -1, "data": -1, "stack": 8388608, "core": 0, "nofile": 1048576, "as": -1, "rss": -1, "nproc": -1}, "cpu-affinity": "per-task", "gpu-affinity": "per-task"}}, "constraints": {"hostlist": ["flux-002,flux-003"]}}, "user": {"study_id": "osu-2-iter-16"}}, "version": 1}
START OF EVENTLOG
{"timestamp":1725839069.8554804,"name":"init"}
{"timestamp":1725839069.8567157,"name":"starting"}
{"timestamp":1725839069.8773513,"name":"shell.init","context":{"service":"501043911-shell-f4szEbXmH","leader-rank":1,"size":2}}
{"timestamp":1725839069.8818605,"name":"shell.start","context":{"taskmap":{"version":1,"map":[[0,2,1,1]]}}}
{"timestamp":1725839075.6259801,"name":"shell.task-exit","context":{"localid":0,"rank":0,"state":"Exited","pid":21377,"wait_status":0,"signaled":0,"exitcode":0}}
{"timestamp":1725839075.6308405,"name":"complete","context":{"status":0}}
{"timestamp":1725839075.6308715,"name":"done"}

