# OSU MPI Bandwidth Test v5.8
# Size      Bandwidth (MB/s)
1                       4.00
2                       8.09
4                      16.00
8                      32.36
16                     64.27
32                    128.64
64                    247.76
128                   488.69
256                   945.46
512                  1788.63
1024                 3201.21
2048                 6002.50
4096                 9033.88
8192                13524.38
16384               17714.17
32768               21043.35
65536               22897.82
131072              23676.17
262144              23951.00
524288              24458.48
1048576             24261.69
2097152             24576.45
4194304             24579.10
START OF JOBSPEC
{"resources": [{"type": "node", "count": 2, "with": [{"type": "slot", "count": 1, "with": [{"type": "core", "count": 1}], "label": "task"}]}], "tasks": [{"command": ["/opt/osu-benchmark/build.openmpi/mpi/pt2pt/osu_bw"], "slot": "task", "count": {"per_slot": 1}}], "attributes": {"system": {"duration": 0, "cwd": "/opt/azhpc-images/ubuntu/ubuntu-22.x/ubuntu-22.04-hpc", "shell": {"options": {"rlimit": {"cpu": -1, "fsize": -1, "data": -1, "stack": 8388608, "core": -1, "nofile": 1048576, "as": -1, "rss": -1, "nproc": -1}, "cpu-affinity": "per-task"}}, "constraints": {"hostlist": ["flux-sample-12,flux-sample-0"]}}, "user": {"study_id": "osu-2-iter-5"}}, "version": 1}
START OF EVENTLOG
{"timestamp":1724527456.2496905,"name":"init"}
{"timestamp":1724527456.2503953,"name":"starting"}
{"timestamp":1724527456.2672963,"name":"shell.init","context":{"service":"0-shell-fdhbwqWX","leader-rank":0,"size":2}}
{"timestamp":1724527456.2698729,"name":"shell.start","context":{"taskmap":{"version":1,"map":[[0,2,1,1]]}}}
{"timestamp":1724527457.4296429,"name":"shell.task-exit","context":{"localid":0,"rank":0,"state":"Exited","pid":159,"wait_status":0,"signaled":0,"exitcode":0}}
{"timestamp":1724527457.4372385,"name":"complete","context":{"status":0}}
{"timestamp":1724527457.4372725,"name":"done"}

