# OSU MPI Bandwidth Test v5.8
# Size      Bandwidth (MB/s)
1                       1.78
2                       3.61
4                       7.29
8                      14.83
16                     29.87
32                     56.84
64                     94.22
128                   167.38
256                   321.31
512                   638.10
1024                 1172.97
2048                 1881.56
4096                 2323.03
8192                 2904.83
16384                3456.48
32768                3756.22
65536                4027.50
131072               4111.43
262144               4203.02
524288               3995.48
1048576              2901.73
2097152              1851.39
4194304               970.56
START OF JOBSPEC
{"resources": [{"type": "node", "count": 2, "with": [{"type": "slot", "count": 1, "with": [{"type": "core", "count": 1}], "label": "task"}]}], "tasks": [{"command": ["/opt/osu-benchmark/build.openmpi/mpi/pt2pt/osu_bw"], "slot": "task", "count": {"per_slot": 1}}], "attributes": {"system": {"duration": 0, "cwd": "/opt", "shell": {"options": {"rlimit": {"cpu": -1, "fsize": -1, "data": -1, "stack": 8388608, "core": -1, "nofile": 1048576, "as": -1, "rss": -1, "nproc": -1}, "cpu-affinity": "per-task"}}, "constraints": {"hostlist": ["flux-sample-3,flux-sample-9"]}}, "user": {"study_id": "osu-2-iter-15"}}, "version": 1}
START OF EVENTLOG
{"timestamp":1725091720.5626421,"name":"init"}
{"timestamp":1725091720.5635512,"name":"starting"}
{"timestamp":1725091720.5736539,"name":"shell.init","context":{"service":"0-shell-fUaic3dh","leader-rank":3,"size":2}}
{"timestamp":1725091720.5771983,"name":"shell.start","context":{"taskmap":{"version":1,"map":[[0,2,1,1]]}}}
{"timestamp":1725091729.7019472,"name":"shell.task-exit","context":{"localid":0,"rank":0,"state":"Exited","pid":121,"wait_status":0,"signaled":0,"exitcode":0}}
{"timestamp":1725091729.7139757,"name":"complete","context":{"status":0}}
{"timestamp":1725091729.7140009,"name":"done"}

