# OSU MPI Bandwidth Test v5.8
# Size      Bandwidth (MB/s)
1                       3.45
2                       6.87
4                      13.98
8                      26.63
16                     54.94
32                    109.92
64                    207.96
128                   280.99
256                   767.95
512                  1476.60
1024                 2819.73
2048                 5146.14
4096                 8270.51
8192                12318.18
16384               16484.72
32768               19663.46
65536               21036.22
131072              21541.06
262144              21991.89
524288              22130.01
1048576             21210.13
2097152             18759.14
4194304              6502.99
START OF JOBSPEC
{"resources": [{"type": "node", "count": 2, "with": [{"type": "slot", "count": 1, "with": [{"type": "core", "count": 1}], "label": "task"}]}], "tasks": [{"command": ["/opt/osu-benchmark/build.openmpi/mpi/pt2pt/osu_bw"], "slot": "task", "count": {"per_slot": 1}}], "attributes": {"system": {"duration": 0, "cwd": "/opt/azhpc-images/ubuntu/ubuntu-22.x/ubuntu-22.04-hpc", "shell": {"options": {"rlimit": {"cpu": -1, "fsize": -1, "data": -1, "stack": 8388608, "core": -1, "nofile": 1048576, "as": -1, "rss": -1, "nproc": -1}, "cpu-affinity": "per-task"}}, "constraints": {"hostlist": ["flux-sample-230,flux-sample-213"]}}, "user": {"study_id": "osu-2-iter-7"}}, "version": 1}
START OF EVENTLOG
{"timestamp":1724957273.5886352,"name":"init"}
{"timestamp":1724957273.5899746,"name":"starting"}
{"timestamp":1724957273.6213422,"name":"shell.init","context":{"service":"0-shell-f2Cbe1XJX","leader-rank":213,"size":2}}
{"timestamp":1724957273.627377,"name":"shell.start","context":{"taskmap":{"version":1,"map":[[0,2,1,1]]}}}
{"timestamp":1724957275.4526718,"name":"shell.task-exit","context":{"localid":0,"rank":0,"state":"Exited","pid":81,"wait_status":0,"signaled":0,"exitcode":0}}
{"timestamp":1724957275.4650917,"name":"complete","context":{"status":0}}
{"timestamp":1724957275.4651167,"name":"done"}

