# OSU MPI Bandwidth Test v5.8
# Size      Bandwidth (MB/s)
1                       3.80
2                       7.49
4                      15.17
8                      31.15
16                     62.39
32                    115.64
64                    238.67
128                   478.85
256                   895.37
512                  1623.84
1024                 3186.25
2048                 5666.23
4096                 8549.67
8192                13038.67
16384               18810.50
32768               20999.50
65536               23053.04
131072              23916.86
262144              24012.62
524288              24288.28
1048576             24467.55
2097152             24417.77
4194304             13499.93
START OF JOBSPEC
{"resources": [{"type": "node", "count": 2, "with": [{"type": "slot", "count": 1, "with": [{"type": "core", "count": 1}], "label": "task"}]}], "tasks": [{"command": ["/opt/osu-benchmark/build.openmpi/mpi/pt2pt/osu_bw"], "slot": "task", "count": {"per_slot": 1}}], "attributes": {"system": {"duration": 0, "cwd": "/opt/azhpc-images/ubuntu/ubuntu-22.x/ubuntu-22.04-hpc", "shell": {"options": {"rlimit": {"cpu": -1, "fsize": -1, "data": -1, "stack": 8388608, "core": -1, "nofile": 1048576, "as": -1, "rss": -1, "nproc": -1}, "cpu-affinity": "per-task"}}, "constraints": {"hostlist": ["flux-sample-145,flux-sample-141"]}}, "user": {"study_id": "osu-2-iter-7"}}, "version": 1}
START OF EVENTLOG
{"timestamp":1724957336.2844529,"name":"init"}
{"timestamp":1724957336.2859278,"name":"starting"}
{"timestamp":1724957336.3116794,"name":"shell.init","context":{"service":"0-shell-f2gEDfBVq","leader-rank":141,"size":2}}
{"timestamp":1724957336.3165836,"name":"shell.start","context":{"taskmap":{"version":1,"map":[[0,2,1,1]]}}}
{"timestamp":1724957337.5796187,"name":"shell.task-exit","context":{"localid":0,"rank":0,"state":"Exited","pid":83,"wait_status":0,"signaled":0,"exitcode":0}}
{"timestamp":1724957337.6062617,"name":"complete","context":{"status":0}}
{"timestamp":1724957337.6062789,"name":"done"}

