# OSU MPI Bandwidth Test v5.8
# Size      Bandwidth (MB/s)
1                       4.06
2                       7.90
4                      16.22
8                      30.94
16                     65.13
32                    128.46
64                    248.49
128                   496.27
256                   936.67
512                  1754.97
1024                 3387.95
2048                 6050.44
4096                 9066.52
8192                13569.72
16384               19118.03
32768               21885.23
65536               23356.15
131072              23938.80
262144              24358.64
524288              24529.38
1048576             24586.95
2097152             24652.30
4194304             24662.97
START OF JOBSPEC
{"resources": [{"type": "node", "count": 2, "with": [{"type": "slot", "count": 1, "with": [{"type": "core", "count": 1}], "label": "task"}]}], "tasks": [{"command": ["/opt/osu-benchmark/build.openmpi/mpi/pt2pt/osu_bw"], "slot": "task", "count": {"per_slot": 1}}], "attributes": {"system": {"duration": 0, "cwd": "/opt/azhpc-images/ubuntu/ubuntu-22.x/ubuntu-22.04-hpc", "shell": {"options": {"rlimit": {"cpu": -1, "fsize": -1, "data": -1, "stack": 8388608, "core": -1, "nofile": 1048576, "as": -1, "rss": -1, "nproc": -1}, "cpu-affinity": "per-task"}}, "constraints": {"hostlist": ["flux-sample-9,flux-sample-2"]}}, "user": {"study_id": "osu-2-iter-18"}}, "version": 1}
START OF EVENTLOG
{"timestamp":1724527504.4058623,"name":"init"}
{"timestamp":1724527504.4067585,"name":"starting"}
{"timestamp":1724527504.3961973,"name":"shell.init","context":{"service":"0-shell-fzvaMWnj","leader-rank":2,"size":2}}
{"timestamp":1724527504.3988543,"name":"shell.start","context":{"taskmap":{"version":1,"map":[[0,2,1,1]]}}}
{"timestamp":1724527505.5426078,"name":"shell.task-exit","context":{"localid":0,"rank":0,"state":"Exited","pid":103,"wait_status":0,"signaled":0,"exitcode":0}}
{"timestamp":1724527505.5787485,"name":"complete","context":{"status":0}}
{"timestamp":1724527505.5787764,"name":"done"}

