# OSU MPI Bandwidth Test v5.8
# Size      Bandwidth (MB/s)
1                       4.01
2                       8.06
4                      16.30
8                      32.55
16                     65.41
32                    125.49
64                    249.42
128                   493.79
256                   949.97
512                  1795.34
1024                 3418.70
2048                 6084.75
4096                 9242.05
8192                13523.85
16384               18292.60
32768               21094.35
65536               22829.43
131072              23758.25
262144              23745.69
524288              23593.91
1048576             23338.17
2097152             24408.46
4194304             24660.62
START OF JOBSPEC
{"resources": [{"type": "node", "count": 2, "with": [{"type": "slot", "count": 1, "with": [{"type": "core", "count": 1}], "label": "task"}]}], "tasks": [{"command": ["/opt/osu-benchmark/build.openmpi/mpi/pt2pt/osu_bw"], "slot": "task", "count": {"per_slot": 1}}], "attributes": {"system": {"duration": 0, "cwd": "/opt/azhpc-images/ubuntu/ubuntu-22.x/ubuntu-22.04-hpc", "shell": {"options": {"rlimit": {"cpu": -1, "fsize": -1, "data": -1, "stack": 8388608, "core": -1, "nofile": 1048576, "as": -1, "rss": -1, "nproc": -1}, "cpu-affinity": "per-task"}}, "constraints": {"hostlist": ["flux-sample-12,flux-sample-27"]}}, "user": {"study_id": "osu-2-iter-0"}}, "version": 1}
START OF EVENTLOG
{"timestamp":1724527436.6134572,"name":"init"}
{"timestamp":1724527436.6140935,"name":"starting"}
{"timestamp":1724527436.6092799,"name":"shell.init","context":{"service":"0-shell-fV3ggywV","leader-rank":12,"size":2}}
{"timestamp":1724527436.6122386,"name":"shell.start","context":{"taskmap":{"version":1,"map":[[0,2,1,1]]}}}
{"timestamp":1724527437.7556798,"name":"shell.task-exit","context":{"localid":0,"rank":0,"state":"Exited","pid":73,"wait_status":0,"signaled":0,"exitcode":0}}
{"timestamp":1724527437.7931237,"name":"complete","context":{"status":0}}
{"timestamp":1724527437.7931514,"name":"done"}

